# nu_e-LS220-s27.0co signal over time, extracted at r = 500 km
# All quantities are measured in a resting observer's frame at infinity
# cols=4 rows=30402
#              time        luminosity               <e>             <e^2>
#               "s"           "foe/s"           "MeV^1"           "MeV^2"
    -0.349455361517    0.000000000000    4.955780840759   27.053282838991
    -0.348491847827    0.007890611514    4.231597946597   19.813645313393
    -0.347274946837    0.027953233708    4.204092187352   19.797141480114
    -0.345302596318    0.041536470855    3.991532937535   18.133244435091
    -0.342046814398    0.043158546263    3.987441820899   18.117107672497
    -0.337020839350    0.044893868957    4.004247083535   18.267657460383
    -0.331985511637    0.046992814003    4.019247035752   18.405416996479
    -0.326838732447    0.049407166687    4.036538376067   18.562983454637
    -0.321780636457    0.052088209130    4.052387135989   18.708976195966
    -0.316659917229    0.055160581820    4.073490973591   18.904565881058
    -0.311574930126    0.058585494583    4.098905175641   19.136743272653
    -0.305621369080    0.062966232502    4.129094723168   19.414432535135
    -0.299835824876    0.067595270145    4.157761487870   19.680363127186
    -0.298482348953    0.068731925992    4.164492814976   19.742945153036
    -0.291204456362    0.075147888727    4.199022042062   20.064802818093
    -0.287274745086    0.078830168158    4.218054329450   20.244751034382
    -0.281423917773    0.084577581356    4.245314803372   20.504000792995
    -0.275573090459    0.090573978497    4.271048047985   20.752833294643
    -0.270358319951    0.095967997296    4.295421280753   20.989467145719
    -0.265003091179    0.101688241649    4.319521686313   21.224402913394
    -0.259181060478    0.108398677744    4.348296801960   21.506746247277
    -0.252919311893    0.115908464970    4.379354542973   21.812400286501
    -0.247358726213    0.122750591557    4.405850188317   22.071577040365
    -0.240697700626    0.131021593534    4.434494199418   22.354032174627
    -0.234856406237    0.138369697598    4.460194047105   22.610635224798
    -0.229482647689    0.145269169098    4.482794716240   22.836960916470
    -0.226814298617    0.148740423638    4.493349610673   22.942433453890
    -0.221370866510    0.155866182288    4.513960062140   23.149269939354
    -0.214454505716    0.165257184968    4.540321254299   23.417305176632
    -0.208394066314    0.173956829629    4.564219173802   23.662608974656
    -0.201302180653    0.184885213087    4.594000078711   23.968740847885
    -0.196124303541    0.193457213959    4.618632075717   24.223438771140
    -0.190262503347    0.204146096510    4.648610888888   24.536967357827
    -0.183745391562    0.217078117706    4.679686228870   24.862503605615
    -0.176964950890    0.231736369796    4.712729505260   25.210688126931
    -0.171357115606    0.245007531849    4.740263161586   25.499536385106
    -0.166414607672    0.258162225924    4.768842255742   25.803090826140
    -0.160992726220    0.273448218684    4.797086241634   26.100454044852
    -0.154856910394    0.293855283879    4.832834655518   26.485266079940
    -0.149473174525    0.315429523463    4.874717505122   26.943735424270
    -0.145499557221    0.333575787214    4.909290943941   27.325554173681
    -0.139930773508    0.361481837618    4.954432122967   27.825407967050
    -0.134896024343    0.389548263935    4.997512002456   28.302800557801
    -0.129438531294    0.423852046350    5.048134530907   28.865225947851
    -0.124400768537    0.459773327923    5.093894307170   29.379807470092
    -0.121540103844    0.482824100313    5.123155904941   29.713402761903
    -0.116359693302    0.529475586196    5.180869089781   30.380029213914
    -0.110298940912    0.592593330335    5.247912527126   31.165119112097
    -0.104492279262    0.664077383175    5.317235278206   31.982046859801
    -0.100159614661    0.725440314673    5.370405455465   32.612387619718
    -0.095019083749    0.808974777998    5.437128354472   33.410184538151
    -0.089724659672    0.912404104698    5.515893789243   34.369315060307
    -0.084491043074    1.038396333726    5.604485794839   35.468561459615
    -0.083175678547    1.074040498481    5.627332063306   35.756909859816
    -0.077928786702    1.230913116343    5.719460008342   36.927467128282
    -0.072836714819    1.418557166735    5.820529913718   38.223137536170
    -0.067745244055    1.648983288823    5.931132881800   39.657634209313
    -0.064108479223    1.847038080845    6.016547834897   40.780678571527
    -0.059025633394    2.185153826243    6.148604535031   42.550380565237
    -0.053946237540    2.624354835527    6.292403335982   44.514270474716
    -0.048869517082    3.174959699422    6.440275928904   46.577909337177
    -0.044664906663    3.735975902636    6.565554351455   48.355477032464
    -0.044086258938    3.823647946002    6.583196097538   48.607462765551
    -0.038746624734    4.771430358279    6.752870111493   51.067877111955
    -0.036719338205    5.212029643894    6.820244364663   52.065173103086
    -0.031719101184    6.596643252226    7.004795639291   54.865041601228
    -0.030363886949    7.068244238406    7.050679809392   55.645167914376
    -0.026639034143    8.635702666827    7.214753449518   58.179767880711
    -0.021887726768   11.522696969521    7.435331700407   61.704067146293
    -0.018581980368   14.519781937579    7.604125966873   64.463327548845
    -0.015920074451   17.946864560380    7.750724846020   66.923198973803
    -0.013564188357   22.169684971295    7.882339360374   69.183983688568
    -0.011669830247   26.706008969184    7.976341811310   70.821675176118
    -0.010284323685   31.137733643749    8.028459817307   71.845531002408
    -0.009016465322   36.084828444881    8.066387756977   72.609084436788
    -0.007929628557   41.284360357110    8.092257915031   73.158371141270
    -0.006982493258   46.843913734630    8.108390638559   73.553182226204
    -0.006187586603   52.380678385895    8.108886074169   73.707350180931
    -0.005502604824   57.886266197322    8.102672405048   73.744817122932
    -0.004887389708   63.510821836314    8.094719020534   73.750821710655
    -0.004354626102   68.875484365228    8.089858476216   73.797248039559
    -0.003854703797   74.292117920907    8.089926845729   73.922243717449
    -0.003430173722   79.115702862289    8.096452200281   74.138009150698
    -0.003055659934   83.446947640210    8.110786399540   74.464548452017
    -0.002722758790   87.268096452457    8.129506248716   74.864365759616
    -0.002414131687   90.738580859714    8.151659165047   75.325252515337
    -0.002154052668   93.583159189332    8.174679317770   75.788873363450
    -0.001914779970   96.115833596540    8.199169831686   76.273109139230
    -0.001704115965   98.252500105617    8.223390503554   76.747042501173
    -0.001522710849  100.005268102286    8.246115735311   77.189425042085
    -0.001353009289  101.562140780091    8.268783086284   77.629612023830
    -0.001206714841  102.831237019871    8.289323432799   78.027929611216
    -0.001079666890  103.870238251709    8.307915281778   78.387922733024
    -0.000964486345  104.755405703892    8.325389873630   78.725659002968
    -0.000859970665  105.507483158952    8.341788705125   79.042092109364
    -0.000770385797  106.111009397082    8.356230207636   79.320541606401
    -0.000690399307  106.616078704534    8.369400816514   79.574428143734
    -0.000618411467  107.042756666362    8.381475075978   79.807148883739
    -0.000556022005  107.390186791975    8.392101849880   80.011940585954
    -0.000500231428  107.682390155523    8.401723982124   80.197337294413
    -0.000475035684  107.808405130550    8.406105583488   80.281746408015
    -0.000473235988  107.817257726607    8.406420934367   80.287820801165
    -0.000466488405  107.850331206285    8.407605992264   80.310646834557
    -0.000458833126  107.887513596356    8.408952771143   80.336586523884
    -0.000442928163  107.963603944284    8.411759172485   80.390635057566
    -0.000423083180  108.056310298693    8.415274660985   80.458333025507
    -0.000389235172  108.208563700999    8.421301562305   80.574379150549
    -0.000364067458  108.316880213289    8.425805967142   80.661099524961
    -0.000350256107  108.374517869640    8.428285977360   80.708841615500
    -0.000337037517  108.428464691591    8.430665074566   80.754638283021
    -0.000324488839  108.478565552746    8.432928683413   80.798209233128
    -0.000312248675  108.526381837543    8.435141494140   80.840799870274
    -0.000299422023  108.575363189842    8.437465523967   80.885528444192
    -0.000287245925  108.620785676998    8.439676643385   80.928081318286
    -0.000276546628  108.659828372590    8.441623588068   80.965548058636
    -0.000267683933  108.691548298048    8.443239167009   80.996636552320
    -0.000259255254  108.721189668763    8.444778035675   81.026247664872
    -0.000251487112  108.748052026176    8.446198374424   81.053576933632
    -0.000243302420  108.775879117821    8.447697046072   81.082412319282
    -0.000234283865  108.805971988477    8.449350904651   81.114232276881
    -0.000225026026  108.836240075748    8.451051439717   81.146948833551
    -0.000215705291  108.866072110228    8.452766366989   81.179940791308
    -0.000205829645  108.896973408814    8.454586487698   81.214954824279
    -0.000197975302  108.921028168498    8.456036341043   81.242844722235
    -0.000188793224  108.948559071574    8.457733845132   81.275497116031
    -0.000177986776  108.980139950189    8.459735159745   81.313991486888
    -0.000167515716  109.009890296067    8.461678016563   81.351359348380
    -0.000157917060  109.036421599853    8.463462144993   81.385672438146
    -0.000147204218  109.065189457291    8.465456901389   81.424034215387
    -0.000135513834  109.095561398204    8.467637989118   81.465976638449
    -0.000124030306  109.124350477523    8.469784849518   81.507257950055
    -0.000113781651  109.149162578728    8.471704518114   81.544168108737
    -0.000104577250  109.170732751376    8.473431527004   81.577371790497
    -0.000096348560  109.189440894009    8.474977838411   81.607099581820
    -0.000088408204  109.206974918722    8.476472085328   81.635824787171
    -0.000081606369  109.221587850185    8.477753743301   81.660461884860
    -0.000074529459  109.236390439294    8.479088858020   81.686125235519
    -0.000068418229  109.248842549057    8.480243127200   81.708311278677
    -0.000062242952  109.261112047038    8.481410747498   81.730752855797
    -0.000056400333  109.272429749021    8.482516643198   81.752007063790
    -0.000050667490  109.283258510889    8.483602862110   81.772882111600
    -0.000045555314  109.292683181881    8.484572403170   81.791513989526
    -0.000040278664  109.302180760454    8.485574044735   81.810761897886
    -0.000035276264  109.310968039468    8.486524489547   81.829025178773
    -0.000030257345  109.319571392513    8.487478908977   81.847364025597
    -0.000025443957  109.327621292299    8.488395029730   81.864966203582
    -0.000020725118  109.335321210316    8.489293907007   81.882236323356
    -0.000016465806  109.342107610551    8.490105886782   81.897836239884
    -0.000012259688  109.348656252345    8.490908319039   81.913252121601
    -0.000007714432  109.355561306796    8.491776112315   81.929922997080
    -0.000003465340  109.361854821285    8.492587985478   81.945518959362
    -0.000000043157  109.366809538034    8.493242297365   81.958087730021
     0.000000000000  109.426861229952    8.492786145542   81.949282898594
     0.000162978440  109.481015015997    8.524126352018   82.550816860572
     0.000356959842  109.204214647568    8.562691872182   83.289450195586
     0.000648375669  108.029990950132    8.622443983379   84.433518611811
     0.001148880626  103.585562893965    8.732913582802   86.541377745791
     0.001649148790   91.702246936780    8.844545441380   88.645103871829
     0.002149209288   72.738056709268    8.942843259171   90.544057988046
     0.002649811610   62.782045932528    8.975954327193   91.219203964919
     0.003150549097   70.190667268085    9.072574138539   93.143314830491
     0.003651306115  100.938730887425    9.599415225238  104.531528103243
     0.004152669987  155.334404974576   10.368490820591  122.560518134685
     0.004654370784  220.931209908193   11.069854442222  140.220660703341
     0.005000684836  263.138755790166   11.447641544657  150.209266596773
     0.005502574088  310.020159277920   11.841135996487  161.038008111283
     0.006006129953  338.765503742639   12.088269721389  168.152845173465
     0.006506425022  349.582192703579   12.212642954214  172.016580552884
     0.007007781250  347.338628682669   12.254683270345  173.648623338515
     0.007509018678  335.727677636740   12.233912622967  173.615517472507
     0.008010438370  320.119579708898   12.168632936197  172.307707358115
     0.008513509213  304.575411980828   12.082410253453  170.309587710938
     0.009015569843  289.438610704707   11.979162511386  167.727839799007
     0.009515873023  275.251238774551   11.878716963288  165.158334816092
     0.010002937030  261.276233985368   11.766221575835  162.208208343350
     0.010507915914  247.026874822500   11.639663147738  158.829447573360
     0.011007946119  233.558815912738   11.512360043438  155.367237704795
     0.011510370707  222.654141876751   11.421775034876  153.050570849462
     0.012016064452  212.077979552449   11.308768854355  149.982358870632
     0.012516760996  203.905397264508   11.244175242415  148.448059918972
     0.013022135164  194.756570841285   11.139515043714  145.672753065519
     0.013524755374  188.022354645923   11.075010342948  144.125710163500
     0.014027281739  179.460093700319   10.978559326826  141.634924888586
     0.014529601649  173.347571775403   10.924578827466  140.422134129507
     0.015003358938  165.992230507994   10.828084773843  137.925117288565
     0.015509862670  160.346580835489   10.763328004327  136.453690019326
     0.016010714331  154.980572956513   10.690422494609  134.526454982379
     0.016514091046  149.955259708698   10.626751665042  133.046673241432
     0.017015324419  145.688199068649   10.579443568246  131.896217404566
     0.017519562707  140.196144727842   10.505620429722  130.077724502832
     0.018029790937  136.398441905172   10.459712210329  129.017860054191
     0.018533155330  131.932827797188   10.398357901066  127.536061491047
     0.019041496860  127.885671547780   10.340092211136  126.128424048679
     0.019544524658  125.417754406633   10.309358357199  125.426349950400
     0.020004516891  122.105796254512   10.254266340434  124.062025265220
     0.020508530278  119.141358865446   10.207263893236  122.934871477844
     0.021009392250  116.598302255507   10.171512750012  122.135327632229
     0.021516875282  113.079831769092   10.110289270710  120.712842882658
     0.022022199622  110.066481583244   10.050760793803  119.278755981994
     0.022523447123  107.341186769189   10.001323655858  118.075096653789
     0.023024460703  104.833304022742    9.953659162518  116.979920404795
     0.023527508770  102.367648981040    9.901735243165  115.763078846310
     0.024028970627  100.509103731917    9.864119616126  114.889707017982
     0.024531155497   99.105789572191    9.842310169672  114.341934420184
     0.025006452971   96.811078828153    9.791976149850  113.147286448682
     0.025512407693   95.089175639988    9.755289590025  112.358965709763
     0.026016389274   93.641911260752    9.729317971590  111.839865069566
     0.026523277154   92.333490639396    9.707533667205  111.303039165871
     0.027029140763   90.563976259321    9.665472018813  110.295629455196
     0.027535250428   89.129269811731    9.632702189804  109.573187010549
     0.028035519863   88.446484376916    9.619016723614  109.323514724885
     0.028537871170   87.862704248917    9.610374286168  109.194156816231
     0.029038557660   87.123089480363    9.602707357280  109.034195690947
     0.029539588846   86.229394547903    9.583097912474  108.537242319609
     0.030011333599   85.334615827787    9.561693405085  108.067195348971
     0.030512455212   84.307066292171    9.543925682085  107.726419083067
     0.031015360706   83.394715592702    9.530337187319  107.483899083755
     0.031518472284   82.687649977401    9.519601882515  107.313841359192
     0.032022980677   81.700757621219    9.501835823369  106.909281022778
     0.032528067669   80.242588819252    9.462861931015  105.989815784880
     0.033030532328   79.213720676753    9.439653032623  105.527673654989
     0.033531005683   78.460285251858    9.429776547279  105.406470324204
     0.034033520181   77.651604463739    9.418564204959  105.236008093261
     0.034538303598   76.545866706827    9.392439075350  104.597310297538
     0.035017942598   75.300639985203    9.358686087720  103.856386866349
     0.035522851556   74.214680504048    9.334624488832  103.405510365170
     0.036025914461   73.281985366995    9.315729015600  103.071523251843
     0.036531294144   72.531932993767    9.298978108805  102.667900307803
     0.037036590887   71.636454039308    9.276098103308  102.126797936679
     0.037542915145   71.147854222612    9.265709813792  101.928138196106
     0.038047374557   70.951301219583    9.261939517632  101.890945965352
     0.038547624704   70.863256806634    9.266487433471  102.073344750351
     0.039047874851   70.912163434504    9.276663540939  102.333844518960
     0.039548124998   71.075218937069    9.289426768515  102.607331435278
     0.040018509465   71.281937511130    9.304207485056  102.944327624490
     0.040518759612   71.445338162576    9.319261412281  103.312642793601
     0.041019110710   71.578570946164    9.332256215383  103.630405006725
     0.041525183686   71.765404592779    9.343904878582  103.897338675433
     0.042027969568   72.034397072001    9.358070597554  104.229156685842
     0.042531444127   72.221821511822    9.371693493404  104.568386251540
     0.043034041380   72.163801715768    9.379675605258  104.788362946454
     0.043539484095   71.885291420254    9.382852432969  104.911445140586
     0.044044926809   71.407835844147    9.371021374213  104.545128534345
     0.044550369523   70.959702532336    9.363406912188  104.397175676989
     0.045024785369   70.528324009782    9.359859295034  104.385346422338
     0.045529215685   69.985017031370    9.354373400147  104.351099071806
     0.046029249424   69.474071253831    9.350675832813  104.356390422719
     0.046533776237   69.133035217042    9.346840393298  104.298350369222
     0.047036793004   68.852475482311    9.342287622021  104.170002923051
     0.047539809771   68.648822409301    9.343782499826  104.165996406283
     0.048042826539   68.247527512305    9.337023073445  103.985879585821
     0.048545843306   67.952133842357    9.335975470325  103.968717752380
     0.049048860073   67.785592741879    9.339033143954  104.048584631185
     0.049551876841   67.691623912461    9.350539053010  104.379331461097
     0.050029097876   67.585465461055    9.365156060147  104.811059759575
     0.050533777303   67.476316026131    9.378434963021  105.192552865332
     0.051037391363   67.514925858073    9.391258810474  105.532638531993
     0.051540514331   67.663432482326    9.403702834896  105.857115708197
     0.052047389906   67.838271197397    9.419383719126  106.296412841141
     0.052551414912   67.919334361021    9.436160633061  106.789075261295
     0.053053487746   67.813213998178    9.447397356712  107.131951767407
     0.053555560579   67.378655708322    9.438472240137  106.840497237290
     0.054057633413   66.713867249096    9.420476892450  106.395962018834
     0.054564431201   66.174741140835    9.420666136215  106.543727568631
     0.055030054850   65.740780637907    9.428690134617  106.893850885084
     0.055536456353   65.224396253635    9.431839203418  107.042063112227
