# SI neutrino floor for Ar 
#  Column 0 = Mass [GeV] 
#  Column 1 = Cross section [cm^2]
1.000000000000000056e-01 2.713275758287458570e-45
1.059560179277615893e-01 3.119452447826771441e-45
1.122667773510813566e-01 3.585405067068458150e-45
1.189534067370319470e-01 4.125165867390571379e-45
1.260382929679727537e-01 4.740732728216417362e-45
1.335451562929898806e-01 5.455010902870472599e-45
1.414991297434576023e-01 6.273519020157664262e-45
1.499268432786045602e-01 7.225204325989744469e-45
1.588565129428052836e-01 8.345912079188866308e-45
1.683180353330956669e-01 9.677863406567679401e-45
1.783430876931909326e-01 1.126286254193785714e-44
1.889652339691209604e-01 1.316763388862572655e-44
2.002200371815584523e-01 1.539382023892294522e-44
2.121451784910629856e-01 1.795512563482733069e-44
2.247805833548725263e-01 2.074057106868325646e-44
2.381685551976158166e-01 2.367900701521169502e-44
2.523539170434765944e-01 2.668619733473320045e-44
2.673841615839946395e-01 2.969001953328570623e-44
2.833096101839324144e-01 3.269945828349075933e-44
3.001835813575589040e-01 3.568950148514784069e-44
3.180625692794120107e-01 3.869318176299518004e-44
3.370064329271929005e-01 4.176426238490341086e-44
3.570785964900463627e-01 4.489115486133305301e-44
3.783462617131930217e-01 4.805171572467303469e-44
4.008806328898465443e-01 5.115865057258561923e-44
4.247571552536899553e-01 5.404239261988501272e-44
4.500557675700498916e-01 5.642793675349600293e-44
4.768611697714470465e-01 5.793975492446325013e-44
5.052631065335680960e-01 5.829431699846317832e-44
5.353566677410726005e-01 5.713943551329508871e-44
5.672426068491979168e-01 5.428942682294077443e-44
6.010276782070382851e-01 4.982014760935225344e-44
6.368249944718588074e-01 4.422697064113706470e-44
6.747544053110694495e-01 3.808937230395102337e-44
7.149428986597579083e-01 3.189516055873525861e-44
7.575250258771913936e-01 2.596941271469941914e-44
8.026433522257175879e-01 2.052752061439431064e-44
8.504489341802679014e-01 1.571215863193490720e-44
9.011018251665020573e-01 1.166962747889746269e-44
9.547716114208059102e-01 8.512988485936537306e-45
1.011637979766207618e+00 6.225259020337282183e-45
1.071891319205128035e+00 4.635303419789479756e-45
1.135733358343105737e+00 3.530901327030401610e-45
1.203377840777589913e+00 2.747512411635583570e-45
1.275051240713013456e+00 2.187762987170508275e-45
1.350993521198027292e+00 1.781733981107255262e-45
1.431458937523479191e+00 1.491468395414622587e-45
1.516716888470923230e+00 1.285856613650013965e-45
1.607052818261639260e+00 1.142655844137927603e-45
1.702769172225900407e+00 1.047538320226911008e-45
1.804186409392072754e+00 9.854764360114276355e-46
1.911644075385702690e+00 9.501417386248789809e-46
2.025501939230667681e+00 9.327482963705223670e-46
2.146141197858404848e+00 9.284763003172125827e-46
2.273965752357928860e+00 9.360322169135944971e-46
2.409403560239525621e+00 9.515012323856186167e-46
2.552908068239517991e+00 9.739596380282953367e-46
2.704959730463135870e+00 1.002346682037806186e-45
2.866067616948251739e+00 1.034083530544633226e-45
3.036771118035459072e+00 1.069604844461043824e-45
3.217641750250737065e+00 1.108685072761309332e-45
3.409285069746812891e+00 1.148183684171246332e-45
3.612342699709432114e+00 1.189590035441163529e-45
3.827494478516312970e+00 1.230240518426027238e-45
4.055460735840830111e+00 1.269567368206868869e-45
4.297004704320841917e+00 1.306381966699431770e-45
4.552935074866949705e+00 1.339316613492095076e-45
4.824108704165371186e+00 1.365182310741977061e-45
5.111433483440167791e+00 1.383783535943293045e-45
5.415871378079473608e+00 1.390795549408978009e-45
5.738441648302395670e+00 1.383261470888196845e-45
6.080224261649424200e+00 1.355586518892435142e-45
6.442363508721373755e+00 1.300786945385367378e-45
6.826071834272389616e+00 1.206187778722775758e-45
7.232633896483537050e+00 1.047445696355947685e-45
7.663410868007458632e+00 8.214416958344704165e-46
8.119844993184013759e+00 5.589663534132746409e-46
8.603464416684504457e+00 2.969952415345595898e-46
9.115888299750823265e+00 4.304383459432577448e-47
9.658832241158703980e+00 2.487187402835506811e-47
1.023411402105453760e+01 1.596691428121745558e-47
1.084365968689610860e+01 1.070682196902778319e-47
1.148951000187309823e+01 7.423318743098723103e-48
1.217382727739662052e+01 5.292372780693758289e-48
1.289890261253309411e+01 3.868519240743502995e-48
1.366716356462007376e+01 2.894113799055902074e-48
1.448118227674534531e+01 2.217327103479583762e-48
1.534368408930013139e+01 1.737441980107828798e-48
1.625755666443794922e+01 1.390097116454202203e-48
1.722585965398787522e+01 1.136722942345072748e-48
1.825183494319044186e+01 9.508719991838472426e-49
1.933891750455232028e+01 8.132191805686930927e-49
2.049074689815848060e+01 7.122359434201191711e-49
2.171117945694505380e+01 6.397255611696992003e-49
2.300430119772919113e+01 5.899097573424259873e-49
2.437444150122221842e+01 5.574053992694791381e-49
2.582618760682677461e+01 5.378431357645276397e-49
2.736439997074672092e+01 5.283900698425935243e-49
2.899422853882878215e+01 5.270160298760396516e-49
3.072112998861759081e+01 5.309558718570291482e-49
3.255088599835060137e+01 5.385411449689783237e-49
3.448962260405759395e+01 5.495481195221836287e-49
3.654383070957258184e+01 5.628888991555557476e-49
3.872038781812557318e+01 5.787809082935220946e-49
4.102658105827194390e+01 5.966612934170089250e-49
4.347013158125026422e+01 6.163139646873534794e-49
4.605922041145108636e+01 6.376388678101924533e-49
4.880251583654433745e+01 6.610005792785737451e-49
5.170920242896760755e+01 6.859903495988425299e-49
5.478901179593945159e+01 7.128397240714279733e-49
5.805225516094901650e+01 7.416093967090519767e-49
6.150985788580504021e+01 7.722500160160765078e-49
6.517339604882427295e+01 8.046860602407597741e-49
6.905513520162330110e+01 8.392938969425465585e-49
7.316807143427199378e+01 8.760108524086355789e-49
7.752597488629464806e+01 9.148501910390135376e-49
8.214343584919430441e+01 9.560772570672452159e-49
8.703591361485165123e+01 9.997008249344359334e-49
9.221978823334330855e+01 1.045819271798451045e-48
9.771241535346501905e+01 1.094703173358706916e-48
1.035321843295662632e+02 1.146262885595168203e-48
1.096985797892384085e+02 1.200904297884137998e-48
1.162322468679852960e+02 1.258724941069240499e-48
1.231550603292826196e+02 1.319674138327301176e-48
1.304901978014403028e+02 1.384465721783574644e-48
1.382622173764656281e+02 1.452425144944616989e-48
1.464971398307286279e+02 1.524787959937111796e-48
1.552225357427047925e+02 1.600965506644206884e-48
1.644676177994664386e+02 1.681951191642264236e-48
1.742633386009650849e+02 1.767433085072368362e-48
1.846424942895544348e+02 1.857710649152935840e-48
1.956398343517064689e+02 1.953410933411795228e-48
2.072921779595371845e+02 2.054399409349590453e-48
2.196385372416546886e+02 2.161634402590794812e-48
2.327202478960409735e+02 2.275060010042773451e-48
2.465811075822603868e+02 2.395241207945064689e-48
2.612675225563328922e+02 2.522317574146192021e-48
2.768286630392066741e+02 2.656788704953716160e-48
2.933166278390045250e+02 2.799452318982808505e-48
3.107866187782013867e+02 2.949893643212037813e-48
3.292971255097151584e+02 3.109961838152420545e-48
3.489101213406773923e+02 3.278933515851594656e-48
3.696912707195028247e+02 3.458058132389736575e-48
3.917101490809260440e+02 3.648132860115026520e-48
4.150404757850476472e+02 3.849528487434658736e-48
4.397603609302720997e+02 4.061639930869337430e-48
4.659525668664682030e+02 4.287744161884552391e-48
4.937047852839003781e+02 4.526931381559359175e-48
5.231099308056263908e+02 4.779204489667819037e-48
5.542664520663107623e+02 5.048682729947234417e-48
5.872786613189482523e+02 5.332004626252051697e-48
6.222570836730230894e+02 5.632339701410764587e-48
6.593188271333548300e+02 5.952483457480535162e-48
6.985879746785249154e+02 6.289564013028826900e-48
7.401959996915644524e+02 6.647326778961382405e-48
7.842822061337682271e+02 7.026844232023550194e-48
8.309941949353395785e+02 7.428525369964262437e-48
8.804883581643464368e+02 7.854599011946829472e-48
9.329304026284686415e+02 8.304948848124170980e-48
9.884959046625585870e+02 8.782560017188912991e-48
1.047370897959450758e+03 9.288696026914688582e-48
1.109752496412072105e+03 9.825398025355965506e-48
1.175849554052158055e+03 1.039320735886187339e-47
1.245883364295008050e+03 1.099452547965057990e-47
1.320088400831419449e+03 1.163445516113962771e-47
1.398713102647238657e+03 1.231011988856071646e-47
1.482020705798860035e+03 1.302437140475832375e-47
1.570290124729377567e+03 1.378275084057707241e-47
1.663816886076130686e+03 1.458956737558796977e-47
1.762914118095947970e+03 1.544180048850569812e-47
1.867913599020784659e+03 1.634105953977108612e-47
1.979166867853557278e+03 1.729651060472963265e-47
2.097046401323234932e+03 1.831370918657353433e-47
2.221946860939523958e+03 1.938801587641952192e-47
2.354286414322420114e+03 2.052188761708339997e-47
2.494508135230316384e+03 2.172467563088756060e-47
2.643081486974108429e+03 2.300751033253240919e-47
2.800503894183631019e+03 2.436160078480247602e-47
2.967302408188872505e+03 2.579203474815904664e-47
3.144035471591500027e+03 2.730525748219397870e-47
3.331294787934677061e+03 2.892148026310604608e-47
3.529707302730650099e+03 3.062799790370915516e-47
3.739937302478801485e+03 3.243519658867684490e-47
3.962688638701478339e+03 3.434110161418069574e-47
4.198707084443914027e+03 3.637472425024466389e-47
4.448782831127585268e+03 3.852720134155546926e-47
4.713753134116728688e+03 4.080649822409433911e-47
4.994505115855139593e+03 4.321346908772211965e-47
5.291978735958447032e+03 4.576163188107072944e-47
5.607169938205458493e+03 4.848500403676093116e-47
5.941133984965039417e+03 5.135797555608081366e-47
6.294988990221887434e+03 5.439556150776675909e-47
6.669919663030128504e+03 5.760461260628614496e-47
7.067181273927491020e+03 6.102838202696787241e-47
7.488103857590030202e+03 6.464990977286604643e-47
7.934096665797492278e+03 6.848682102033115626e-47
8.406652885618334039e+03 7.253966528424277662e-47
8.907354638610438997e+03 7.682505553382254898e-47
9.437878277775391325e+03 8.140996391338537490e-47
1.000000000000000000e+04 8.624490679441082753e-47
