# SDp neutrino floor for F 
#  Column 0 = Mass [GeV] 
#  Column 1 = Cross section [cm^2]
1.000000000000000056e-01 9.723451307876571865e-43
1.059560179277615893e-01 1.126693906267687270e-42
1.122667773510813566e-01 1.305677741646400691e-42
1.189534067370319470e-01 1.512387012741759400e-42
1.260382929679727537e-01 1.749068802547615351e-42
1.335451562929898806e-01 2.022633920974755138e-42
1.414991297434576023e-01 2.336463828566458686e-42
1.499268432786045602e-01 2.702378562614959146e-42
1.588565129428052836e-01 3.130669580914835738e-42
1.683180353330956669e-01 3.637849696787210268e-42
1.783430876931909326e-01 4.240563078097762236e-42
1.889652339691209604e-01 4.962348223976725367e-42
2.002200371815584523e-01 5.818710545914807060e-42
2.121451784910629856e-01 6.790935976528990204e-42
2.247805833548725263e-01 7.869244807684582542e-42
2.381685551976158166e-01 9.013148798799679919e-42
2.523539170434765944e-01 1.018286388692959848e-41
2.673841615839946395e-01 1.137844060606041586e-41
2.833096101839324144e-01 1.255442237750679731e-41
3.001835813575589040e-01 1.373801027276385344e-41
3.180625692794120107e-01 1.493360702498672461e-41
3.370064329271929005e-01 1.614808908630716985e-41
3.570785964900463627e-01 1.739216887186678915e-41
3.783462617131930217e-01 1.865493872619943287e-41
4.008806328898465443e-01 1.991462725435154298e-41
4.247571552536899553e-01 2.112961576545977075e-41
4.500557675700498916e-01 2.220491503914381889e-41
4.768611697714470465e-01 2.302980811239052639e-41
5.052631065335680960e-01 2.343911247040773254e-41
5.353566677410726005e-01 2.329831617760572066e-41
5.672426068491979168e-01 2.253034701472522115e-41
6.010276782070382851e-01 2.113924108346889970e-41
6.368249944718588074e-01 1.923908228692262114e-41
6.747544053110694495e-01 1.701195603646007242e-41
7.149428986597579083e-01 1.460824506056132873e-41
7.575250258771913936e-01 1.215939013377477301e-41
8.026433522257175879e-01 9.775771815709563466e-42
8.504489341802679014e-01 7.561121720808470484e-42
9.011018251665020573e-01 5.616610525227262826e-42
9.547716114208059102e-01 4.036816684561122959e-42
1.011637979766207618e+00 2.883811176164856868e-42
1.071891319205128035e+00 2.111333326930162622e-42
1.135733358343105737e+00 1.597707494538716321e-42
1.203377840777589913e+00 1.246397694918981744e-42
1.275051240713013456e+00 9.979810003025085501e-43
1.350993521198027292e+00 8.200605947768817455e-43
1.431458937523479191e+00 6.905406168030490312e-43
1.516716888470923230e+00 5.973880974368350769e-43
1.607052818261639260e+00 5.304583200598512319e-43
1.702769172225900407e+00 4.837205511507532652e-43
1.804186409392072754e+00 4.520273679986628753e-43
1.911644075385702690e+00 4.321390532506219036e-43
2.025501939230667681e+00 4.209599284040941059e-43
2.146141197858404848e+00 4.163720734885957569e-43
2.273965752357928860e+00 4.174774581770699145e-43
2.409403560239525621e+00 4.225529328401131783e-43
2.552908068239517991e+00 4.311441984692786458e-43
2.704959730463135870e+00 4.429193750080209745e-43
2.866067616948251739e+00 4.571610508528899310e-43
3.036771118035459072e+00 4.736807048622290305e-43
3.217641750250737065e+00 4.923771718203170430e-43
3.409285069746812891e+00 5.121858826979000798e-43
3.612342699709432114e+00 5.339481775104843845e-43
3.827494478516312970e+00 5.566582450463873141e-43
4.055460735840830111e+00 5.806378065124497348e-43
4.297004704320841917e+00 6.051451172251993179e-43
4.552935074866949705e+00 6.299203297039698889e-43
4.824108704165371186e+00 6.549039014865613388e-43
5.111433483440167791e+00 6.798795782453314253e-43
5.415871378079473608e+00 7.036426862670046256e-43
5.738441648302395670e+00 7.261376831499017478e-43
6.080224261649424200e+00 7.468085118945781296e-43
6.442363508721373755e+00 7.648565291070281965e-43
6.826071834272389616e+00 7.789072659412531480e-43
7.232633896483537050e+00 7.880274490368354599e-43
7.663410868007458632e+00 7.902696331515539687e-43
8.119844993184013759e+00 7.830736860483972177e-43
8.603464416684504457e+00 7.609035523335493993e-43
9.115888299750823265e+00 7.188240264249081151e-43
9.658832241158703980e+00 6.518011307553337019e-43
1.023411402105453760e+01 5.574200513969979314e-43
1.084365968689610860e+01 4.446723726750040873e-43
1.148951000187309823e+01 3.269030993657521722e-43
1.217382727739662052e+01 2.130416636166636284e-43
1.289890261253309411e+01 4.589764327378465919e-44
1.366716356462007376e+01 2.558799372866560526e-44
1.448118227674534531e+01 1.860938703711409407e-44
1.534368408930013139e+01 1.427281547572853878e-44
1.625755666443794922e+01 1.128714857654827810e-44
1.722585965398787522e+01 9.133293025299566511e-45
1.825183494319044186e+01 7.541777964792364358e-45
1.933891750455232028e+01 6.341542347007916256e-45
2.049074689815848060e+01 5.426721973090722209e-45
2.171117945694505380e+01 4.720901249435797467e-45
2.300430119772919113e+01 4.167955011270104813e-45
2.437444150122221842e+01 3.730584525917766426e-45
2.582618760682677461e+01 3.381812245826762264e-45
2.736439997074672092e+01 3.103498760934942431e-45
2.899422853882878215e+01 2.881539603778914742e-45
3.072112998861759081e+01 2.705074545030957334e-45
3.255088599835060137e+01 2.564546701201704105e-45
3.448962260405759395e+01 2.454233218556127147e-45
3.654383070957258184e+01 2.367789496048715146e-45
3.872038781812557318e+01 2.302638014595013313e-45
4.102658105827194390e+01 2.256857814424240971e-45
4.347013158125026422e+01 2.226777326675228884e-45
4.605922041145108636e+01 2.210679942697999185e-45
4.880251583654433745e+01 2.208317797463931450e-45
5.170920242896760755e+01 2.217013077597231354e-45
5.478901179593945159e+01 2.237363949832824416e-45
5.805225516094901650e+01 2.267028486613300735e-45
6.150985788580504021e+01 2.305872284755573315e-45
6.517339604882427295e+01 2.353266735158286414e-45
6.905513520162330110e+01 2.410045797495786698e-45
7.316807143427199378e+01 2.475365832825196851e-45
7.752597488629464806e+01 2.548782753625422632e-45
8.214343584919430441e+01 2.631102945333237392e-45
8.703591361485165123e+01 2.722094286001777584e-45
9.221978823334330855e+01 2.822247394164249042e-45
9.771241535346501905e+01 2.930628185993194271e-45
1.035321843295662632e+02 3.048281734738772961e-45
1.096985797892384085e+02 3.175358198593700794e-45
1.162322468679852960e+02 3.310787081626461475e-45
1.231550603292826196e+02 3.458045567189757706e-45
1.304901978014403028e+02 3.614377114719958970e-45
1.382622173764656281e+02 3.782596046334922921e-45
1.464971398307286279e+02 3.961211253989261334e-45
1.552225357427047925e+02 4.151989600207719066e-45
1.644676177994664386e+02 4.355376272722497632e-45
1.742633386009650849e+02 4.571461520721691820e-45
1.846424942895544348e+02 4.802399928714867814e-45
1.956398343517064689e+02 5.047173622557598190e-45
2.072921779595371845e+02 5.306881896457155628e-45
2.196385372416546886e+02 5.583549741748421082e-45
2.327202478960409735e+02 5.877477947092644953e-45
2.465811075822603868e+02 6.188270438552440006e-45
2.612675225563328922e+02 6.519816255099335362e-45
2.768286630392066741e+02 6.870097524301079743e-45
2.933166278390045250e+02 7.243142161538513314e-45
3.107866187782013867e+02 7.638160929296990741e-45
3.292971255097151584e+02 8.056071535499283887e-45
3.489101213406773923e+02 8.500616508148467850e-45
3.696912707195028247e+02 8.972771055493774564e-45
3.917101490809260440e+02 9.471520020968953063e-45
4.150404757850476472e+02 1.000056742670612277e-44
4.397603609302720997e+02 1.056119480438693456e-44
4.659525668664682030e+02 1.115693783325732974e-44
4.937047852839003781e+02 1.178812211919414549e-44
5.231099308056263908e+02 1.245677338677592528e-44
5.542664520663107623e+02 1.316502927821211596e-44
5.872786613189482523e+02 1.391649843283727387e-44
6.222570836730230894e+02 1.471218263994145612e-44
6.593188271333548300e+02 1.555474998222793648e-44
6.985879746785249154e+02 1.644908776390339927e-44
7.401959996915644524e+02 1.739556425602682042e-44
7.842822061337682271e+02 1.839968448863271585e-44
8.309941949353395785e+02 1.946177825633303426e-44
8.804883581643464368e+02 2.059034253800917387e-44
9.329304026284686415e+02 2.178634988951708411e-44
9.884959046625585870e+02 2.305388518242615452e-44
1.047370897959450758e+03 2.439223093575901511e-44
1.109752496412072105e+03 2.581256409133957931e-44
1.175849554052158055e+03 2.731858073742148160e-44
1.245883364295008050e+03 2.891335971624753505e-44
1.320088400831419449e+03 3.060624741226411561e-44
1.398713102647238657e+03 3.239727392408607702e-44
1.482020705798860035e+03 3.429237901417901791e-44
1.570290124729377567e+03 3.630299094612695993e-44
1.663816886076130686e+03 3.843756269322034736e-44
1.762914118095947970e+03 4.069656289892597375e-44
1.867913599020784659e+03 4.308617009694635180e-44
1.979166867853557278e+03 4.561972340496637546e-44
2.097046401323234932e+03 4.831050151323488481e-44
2.221946860939523958e+03 5.115679136575941848e-44
2.354286414322420114e+03 5.416837295753492669e-44
2.494508135230316384e+03 5.736405492058824118e-44
2.643081486974108429e+03 6.075785680882221364e-44
2.800503894183631019e+03 6.434084581755675617e-44
2.967302408188872505e+03 6.814301156801326851e-44
3.144035471591500027e+03 7.217795346192911215e-44
3.331294787934677061e+03 7.643816386410848014e-44
3.529707302730650099e+03 8.095808091302612804e-44
3.739937302478801485e+03 8.575879026431233044e-44
3.962688638701478339e+03 9.083428986192108489e-44
4.198707084443914027e+03 9.620152193278132715e-44
4.448782831127585268e+03 1.019055381492956381e-43
4.713753134116728688e+03 1.079469119553799347e-43
4.994505115855139593e+03 1.143387071688641026e-43
5.291978735958447032e+03 1.211247885356689020e-43
5.607169938205458493e+03 1.283155941395549292e-43
5.941133984965039417e+03 1.359172482275642597e-43
6.294988990221887434e+03 1.439949451607537829e-43
6.669919663030128504e+03 1.525416193109862573e-43
7.067181273927491020e+03 1.615739103420729570e-43
7.488103857590030202e+03 1.711760499912556004e-43
7.934096665797492278e+03 1.813428887929656031e-43
8.406652885618334039e+03 1.921078958535055625e-43
8.907354638610438997e+03 2.035416142133430187e-43
9.437878277775391325e+03 2.156169330977686201e-43
1.000000000000000000e+04 2.284236667282961779e-43
