# SI neutrino floor for F 
#  Column 0 = Mass [GeV] 
#  Column 1 = Cross section [cm^2]
1.000000000000000056e-01 2.444323476585647996e-45
1.059560179277615893e-01 2.834705332635926370e-45
1.122667773510813566e-01 3.284471912150569331e-45
1.189534067370319470e-01 3.801510730728656324e-45
1.260382929679727537e-01 4.395112452217833991e-45
1.335451562929898806e-01 5.081519062166419764e-45
1.414991297434576023e-01 5.873066102448787996e-45
1.499268432786045602e-01 6.791431344695241607e-45
1.588565129428052836e-01 7.866279853685888597e-45
1.683180353330956669e-01 9.135052189485082797e-45
1.783430876931909326e-01 1.065516990867685787e-44
1.889652339691209604e-01 1.245713210693951056e-44
2.002200371815584523e-01 1.459408045495746013e-44
2.121451784910629856e-01 1.703556298098194933e-44
2.247805833548725263e-01 1.972181882851834001e-44
2.381685551976158166e-01 2.258020656777954663e-44
2.523539170434765944e-01 2.548944174389126010e-44
2.673841615839946395e-01 2.844247422593051992e-44
2.833096101839324144e-01 3.135643266881628005e-44
3.001835813575589040e-01 3.428213585344164531e-44
3.180625692794120107e-01 3.723977611559843070e-44
3.370064329271929005e-01 4.024535081000803881e-44
3.570785964900463627e-01 4.329134086348165624e-44
3.783462617131930217e-01 4.639862321401117054e-44
4.008806328898465443e-01 4.947920818502806088e-44
4.247571552536899553e-01 5.243367517562250709e-44
4.500557675700498916e-01 5.497625815118044698e-44
4.768611697714470465e-01 5.681090954171932648e-44
5.052631065335680960e-01 5.764287129725723818e-44
5.353566677410726005e-01 5.717478934443802213e-44
5.672426068491979168e-01 5.519687680594842502e-44
6.010276782070382851e-01 5.164499262546869488e-44
6.368249944718588074e-01 4.682645008855562622e-44
6.747544053110694495e-01 4.119797477126592515e-44
7.149428986597579083e-01 3.519212334753735302e-44
7.575250258771913936e-01 2.913050234658290234e-44
8.026433522257175879e-01 2.326198320809375807e-44
8.504489341802679014e-01 1.786321421072000535e-44
9.011018251665020573e-01 1.315960268228717527e-44
9.547716114208059102e-01 9.398325912163092072e-45
1.011637979766207618e+00 6.700158261329176774e-45
1.071891319205128035e+00 4.902648582271802691e-45
1.135733358343105737e+00 3.706700936723856357e-45
1.203377840777589913e+00 2.886575807435803627e-45
1.275051240713013456e+00 2.308137436059372025e-45
1.350993521198027292e+00 1.891914310498012325e-45
1.431458937523479191e+00 1.592349192128964584e-45
1.516716888470923230e+00 1.376241439810355004e-45
1.607052818261639260e+00 1.222198549719240583e-45
1.702769172225900407e+00 1.115753102998673107e-45
1.804186409392072754e+00 1.043918835080118947e-45
1.911644075385702690e+00 9.991976134923751203e-46
2.025501939230667681e+00 9.742711395746778082e-46
2.146141197858404848e+00 9.641560701601079921e-46
2.273965752357928860e+00 9.671106485861817375e-46
2.409403560239525621e+00 9.786472015200455928e-46
2.552908068239517991e+00 9.981451286972161996e-46
2.704959730463135870e+00 1.025030487028415622e-45
2.866067616948251739e+00 1.056272330293472091e-45
3.036771118035459072e+00 1.092930767294247537e-45
3.217641750250737065e+00 1.133595080313398130e-45
3.409285069746812891e+00 1.177033546067012374e-45
3.612342699709432114e+00 1.223321069982695138e-45
3.827494478516312970e+00 1.272100078875754995e-45
4.055460735840830111e+00 1.321912176435763133e-45
4.297004704320841917e+00 1.371542125792221226e-45
4.552935074866949705e+00 1.421454846545111740e-45
4.824108704165371186e+00 1.469931392023852081e-45
5.111433483440167791e+00 1.515906007186986847e-45
5.415871378079473608e+00 1.558337756408380033e-45
5.738441648302395670e+00 1.595028086622116052e-45
6.080224261649424200e+00 1.624672835153076091e-45
6.442363508721373755e+00 1.645833532731277859e-45
6.826071834272389616e+00 1.654601658768479726e-45
7.232633896483537050e+00 1.648918333978808138e-45
7.663410868007458632e+00 1.623920030991163716e-45
8.119844993184013759e+00 1.570006347811476746e-45
8.603464416684504457e+00 1.476692100582591662e-45
9.115888299750823265e+00 1.334781752715723716e-45
9.658832241158703980e+00 1.140908874400455694e-45
1.023411402105453760e+01 9.020519226526679793e-46
1.084365968689610860e+01 6.496819160892780360e-46
1.148951000187309823e+01 4.122654377961884638e-46
1.217382727739662052e+01 1.001414344653122162e-46
1.289890261253309411e+01 4.829740619402347441e-47
1.366716356462007376e+01 3.391492445516491957e-47
1.448118227674534531e+01 2.520302012012389563e-47
1.534368408930013139e+01 1.933598560344568441e-47
1.625755666443794922e+01 1.520622370644007464e-47
1.722585965398787522e+01 1.221514808377510232e-47
1.825183494319044186e+01 1.000273914589322875e-47
1.933891750455232028e+01 8.343432763928007149e-48
2.049074689815848060e+01 7.086891113755149421e-48
2.171117945694505380e+01 6.123959225088936229e-48
2.300430119772919113e+01 5.374190842226612217e-48
2.437444150122221842e+01 4.784581370896614025e-48
2.582618760682677461e+01 4.316714891091479423e-48
2.736439997074672092e+01 3.944618928097792297e-48
2.899422853882878215e+01 3.652005117911620521e-48
3.072112998861759081e+01 3.419833157779151581e-48
3.255088599835060137e+01 3.238099880409001355e-48
3.448962260405759395e+01 3.094768927869521252e-48
3.654383070957258184e+01 2.985928536754795333e-48
3.872038781812557318e+01 2.904265633189181943e-48
4.102658105827194390e+01 2.847947725218758530e-48
4.347013158125026422e+01 2.813514432060020217e-48
4.605922041145108636e+01 2.798808457596181432e-48
4.880251583654433745e+01 2.801930536650146136e-48
5.170920242896760755e+01 2.819787988344440702e-48
5.478901179593945159e+01 2.850912257616249043e-48
5.805225516094901650e+01 2.895816290753198024e-48
6.150985788580504021e+01 2.952523464438059058e-48
6.517339604882427295e+01 3.019535076634326871e-48
6.905513520162330110e+01 3.098067222962300851e-48
7.316807143427199378e+01 3.187566515350207794e-48
7.752597488629464806e+01 3.288238775002937799e-48
8.214343584919430441e+01 3.400328774927356128e-48
8.703591361485165123e+01 3.523759013588799386e-48
9.221978823334330855e+01 3.657800297006280149e-48
9.771241535346501905e+01 3.802800096573938344e-48
1.035321843295662632e+02 3.959846795164023531e-48
1.096985797892384085e+02 4.128631385602826777e-48
1.162322468679852960e+02 4.310184768062520540e-48
1.231550603292826196e+02 4.505190159147492838e-48
1.304901978014403028e+02 4.711499537765420410e-48
1.382622173764656281e+02 4.933862803254170178e-48
1.464971398307286279e+02 5.169041666478640195e-48
1.552225357427047925e+02 5.420423887085929897e-48
1.644676177994664386e+02 5.688206853768729848e-48
1.742633386009650849e+02 5.972448990938787961e-48
1.846424942895544348e+02 6.274925728704210414e-48
1.956398343517064689e+02 6.595784122699084258e-48
2.072921779595371845e+02 6.936771424489795020e-48
2.196385372416546886e+02 7.298968335662450110e-48
2.327202478960409735e+02 7.684275087978367970e-48
2.465811075822603868e+02 8.090922585382937216e-48
2.612675225563328922e+02 8.524922026359644737e-48
2.768286630392066741e+02 8.982960354916257371e-48
2.933166278390045250e+02 9.470928288909020997e-48
3.107866187782013867e+02 9.986246106761153997e-48
3.292971255097151584e+02 1.053482624483660069e-47
3.489101213406773923e+02 1.111397583337630332e-47
3.696912707195028247e+02 1.172904286509180452e-47
3.917101490809260440e+02 1.238217297088511389e-47
4.150404757850476472e+02 1.307544772393794786e-47
4.397603609302720997e+02 1.380718115085416806e-47
4.659525668664682030e+02 1.458430507066881681e-47
4.937047852839003781e+02 1.540664350513194538e-47
5.231099308056263908e+02 1.627846205134800829e-47
5.542664520663107623e+02 1.720528820413645167e-47
5.872786613189482523e+02 1.818469834773486866e-47
6.222570836730230894e+02 1.922295345796347813e-47
6.593188271333548300e+02 2.032438986316203266e-47
6.985879746785249154e+02 2.149059141506556410e-47
7.401959996915644524e+02 2.272631947312814939e-47
7.842822061337682271e+02 2.403709989600678224e-47
8.309941949353395785e+02 2.542361840910267388e-47
8.804883581643464368e+02 2.689601760184710849e-47
9.329304026284686415e+02 2.845675561978464345e-47
9.884959046625585870e+02 3.010843717245470020e-47
1.047370897959450758e+03 3.185754862463091854e-47
1.109752496412072105e+03 3.371028213976507492e-47
1.175849554052158055e+03 3.567375927117273913e-47
1.245883364295008050e+03 3.775309141402214599e-47
1.320088400831419449e+03 3.996201003180877178e-47
1.398713102647238657e+03 4.230459291069809729e-47
1.482020705798860035e+03 4.477895476858509676e-47
1.570290124729377567e+03 4.739707891872877255e-47
1.663816886076130686e+03 5.017905852896921951e-47
1.762914118095947970e+03 5.313336419131365698e-47
1.867913599020784659e+03 5.625386564254378207e-47
1.979166867853557278e+03 5.955263764522689983e-47
2.097046401323234932e+03 6.305883446563437099e-47
2.221946860939523958e+03 6.678299739051870260e-47
2.354286414322420114e+03 7.071471159116214065e-47
2.494508135230316384e+03 7.487394501954988415e-47
2.643081486974108429e+03 7.928977479412349586e-47
2.800503894183631019e+03 8.398419724094448947e-47
2.967302408188872505e+03 8.893888575659964490e-47
3.144035471591500027e+03 9.418623582464588214e-47
3.331294787934677061e+03 9.975983055021652891e-47
3.529707302730650099e+03 1.056553191664125966e-46
3.739937302478801485e+03 1.119056649479319602e-46
3.962688638701478339e+03 1.185376173213024345e-46
4.198707084443914027e+03 1.255500544866917411e-46
4.448782831127585268e+03 1.329819327133851941e-46
4.713753134116728688e+03 1.408740251559903932e-46
4.994505115855139593e+03 1.492244352878292720e-46
5.291978735958447032e+03 1.580474742472347248e-46
5.607169938205458493e+03 1.674182913846921916e-46
5.941133984965039417e+03 1.773581736528856851e-46
6.294988990221887434e+03 1.878710930349812783e-46
6.669919663030128504e+03 1.990324337746778417e-46
7.067181273927491020e+03 2.108459335740766765e-46
7.488103857590030202e+03 2.233503270589468428e-46
7.934096665797492278e+03 2.366338956291819610e-46
8.406652885618334039e+03 2.506864362578479726e-46
8.907354638610438997e+03 2.655420985282557376e-46
9.437878277775391325e+03 2.813260870610223518e-46
1.000000000000000000e+04 2.980303274233636887e-46
