# SDn neutrino floor for Si 
#  Column 0 = Mass [GeV] 
#  Column 1 = Cross section [cm^2]
1.000000000000000056e-01 2.732904215635686311e-36
1.059560179277615893e-01 3.156988877907181616e-36
1.122667773510813566e-01 3.643011202297259941e-36
1.189534067370319470e-01 4.205223690552543219e-36
1.260382929679727537e-01 4.848357973461561271e-36
1.335451562929898806e-01 5.590871455391071519e-36
1.414991297434576023e-01 6.447097115208775881e-36
1.499268432786045602e-01 7.436194555935175987e-36
1.588565129428052836e-01 8.598581810612268899e-36
1.683180353330956669e-01 9.971054844869216285e-36
1.783430876931909326e-01 1.161179146737369973e-35
1.889652339691209604e-01 1.358051744403838758e-35
2.002200371815584523e-01 1.589083596389458603e-35
2.121451784910629856e-01 1.855349313784344277e-35
2.247805833548725263e-01 2.147760244269936921e-35
2.381685551976158166e-01 2.457689253494485235e-35
2.523539170434765944e-01 2.777113541340405645e-35
2.673841615839946395e-01 3.096453309538403271e-35
2.833096101839324144e-01 3.418239040868490515e-35
3.001835813575589040e-01 3.739551622477936724e-35
3.180625692794120107e-01 4.063202909580015441e-35
3.370064329271929005e-01 4.395766710498510354e-35
3.570785964900463627e-01 4.732573045880291614e-35
3.783462617131930217e-01 5.076244981106873136e-35
4.008806328898465443e-01 5.415244862029972352e-35
4.247571552536899553e-01 5.738886895743076290e-35
4.500557675700498916e-01 6.018815907199813276e-35
4.768611697714470465e-01 6.215865203958368370e-35
5.052631065335680960e-01 6.285567119714364540e-35
5.353566677410726005e-01 6.188493439794075064e-35
5.672426068491979168e-01 5.905389274886831528e-35
6.010276782070382851e-01 5.458170083195939121e-35
6.368249944718588074e-01 4.886514775799051714e-35
6.747544053110694495e-01 4.249187286072827900e-35
7.149428986597579083e-01 3.593942866132980300e-35
7.575250258771913936e-01 2.960252653810850005e-35
8.026433522257175879e-01 2.371085709831533365e-35
8.504489341802679014e-01 1.842542803096470895e-35
9.011018251665020573e-01 1.390415381851374110e-35
9.547716114208059102e-01 1.027552938775042640e-35
1.011637979766207618e+00 7.570327625702187139e-36
1.071891319205128035e+00 5.654586762497498920e-36
1.135733358343105737e+00 4.311701121940277082e-36
1.203377840777589913e+00 3.358719683660136825e-36
1.275051240713013456e+00 2.673459175198501414e-36
1.350993521198027292e+00 2.176318081662599441e-36
1.431458937523479191e+00 1.816427508118824997e-36
1.516716888470923230e+00 1.558312225907575221e-36
1.607052818261639260e+00 1.376650283104895265e-36
1.702769172225900407e+00 1.252971494601757376e-36
1.804186409392072754e+00 1.172047152246431969e-36
1.911644075385702690e+00 1.122675181901975089e-36
2.025501939230667681e+00 1.097402046958038559e-36
2.146141197858404848e+00 1.089532933829678264e-36
2.273965752357928860e+00 1.095672470991603673e-36
2.409403560239525621e+00 1.113057184525003317e-36
2.552908068239517991e+00 1.138863760918292733e-36
2.704959730463135870e+00 1.172644314813264499e-36
2.866067616948251739e+00 1.212520208518017991e-36
3.036771118035459072e+00 1.257431821234996771e-36
3.217641750250737065e+00 1.307419716439293944e-36
3.409285069746812891e+00 1.360880529950471916e-36
3.612342699709432114e+00 1.417309994264323037e-36
3.827494478516312970e+00 1.476145977465659880e-36
4.055460735840830111e+00 1.536098921678066113e-36
4.297004704320841917e+00 1.596135315679211171e-36
4.552935074866949705e+00 1.655433393194884217e-36
4.824108704165371186e+00 1.712022277264440901e-36
5.111433483440167791e+00 1.764665360163322100e-36
5.415871378079473608e+00 1.811330093193139768e-36
5.738441648302395670e+00 1.849640854649292283e-36
6.080224261649424200e+00 1.875241648159102917e-36
6.442363508721373755e+00 1.884953088644156588e-36
6.826071834272389616e+00 1.870934305762225572e-36
7.232633896483537050e+00 1.822626130364934813e-36
7.663410868007458632e+00 1.716908087783288541e-36
8.119844993184013759e+00 1.527834765828683619e-36
8.603464416684504457e+00 1.257422610777650302e-36
9.115888299750823265e+00 9.263072387721212543e-37
9.658832241158703980e+00 5.821053632093098944e-37
1.023411402105453760e+01 2.078307771741167727e-37
1.084365968689610860e+01 5.250402101583968406e-38
1.148951000187309823e+01 3.546484229851930805e-38
1.217382727739662052e+01 2.535439886251952454e-38
1.289890261253309411e+01 1.876144907577988663e-38
1.366716356462007376e+01 1.427101667538563255e-38
1.448118227674534531e+01 1.110710871862517545e-38
1.534368408930013139e+01 8.830734440343456684e-39
1.625755666443794922e+01 7.163749986675879463e-39
1.722585965398787522e+01 5.925789959747025754e-39
1.825183494319044186e+01 4.991318376661350042e-39
1.933891750455232028e+01 4.275378495633089017e-39
2.049074689815848060e+01 3.723893041007311190e-39
2.171117945694505380e+01 3.297808093141515906e-39
2.300430119772919113e+01 2.966345452617277126e-39
2.437444150122221842e+01 2.707947939422317373e-39
2.582618760682677461e+01 2.507819046491433788e-39
2.736439997074672092e+01 2.356647733995772662e-39
2.899422853882878215e+01 2.244102030611254539e-39
3.072112998861759081e+01 2.164579123918742402e-39
3.255088599835060137e+01 2.112066821619279800e-39
3.448962260405759395e+01 2.081729814566799227e-39
3.654383070957258184e+01 2.072014882015860809e-39
3.872038781812557318e+01 2.080200438068735337e-39
4.102658105827194390e+01 2.103256130440468003e-39
4.347013158125026422e+01 2.139178624689287554e-39
4.605922041145108636e+01 2.187534156364373528e-39
4.880251583654433745e+01 2.245645796222508958e-39
5.170920242896760755e+01 2.314643045524004185e-39
5.478901179593945159e+01 2.393451924251167573e-39
5.805225516094901650e+01 2.481529406821750251e-39
6.150985788580504021e+01 2.578984165694716374e-39
6.517339604882427295e+01 2.685525263441332166e-39
6.905513520162330110e+01 2.800992819757114938e-39
7.316807143427199378e+01 2.925675219451254602e-39
7.752597488629464806e+01 3.059773758972317135e-39
8.214343584919430441e+01 3.203624842236139847e-39
8.703591361485165123e+01 3.357430920435200075e-39
9.221978823334330855e+01 3.521950173613762416e-39
9.771241535346501905e+01 3.697273225890605403e-39
1.035321843295662632e+02 3.883893624853207588e-39
1.096985797892384085e+02 4.082546862773723412e-39
1.162322468679852960e+02 4.293735298983939258e-39
1.231550603292826196e+02 4.518306801899180393e-39
1.304901978014403028e+02 4.756038974861247454e-39
1.382622173764656281e+02 5.009225482791734236e-39
1.464971398307286279e+02 5.277637824915903644e-39
1.552225357427047925e+02 5.562382216897612121e-39
1.644676177994664386e+02 5.864667369080216617e-39
1.742633386009650849e+02 6.184710615054249350e-39
1.846424942895544348e+02 6.523762259347429452e-39
1.956398343517064689e+02 6.883169967780695672e-39
2.072921779595371845e+02 7.265621308395400263e-39
2.196385372416546886e+02 7.669284934384537017e-39
2.327202478960409735e+02 8.098480492911313772e-39
2.465811075822603868e+02 8.552297622833515571e-39
2.612675225563328922e+02 9.034037218305450877e-39
2.768286630392066741e+02 9.543765376435653375e-39
2.933166278390045250e+02 1.008484671098920366e-38
3.107866187782013867e+02 1.065713430447287575e-38
3.292971255097151584e+02 1.126329569256781508e-38
3.489101213406773923e+02 1.190576289769970917e-38
3.696912707195028247e+02 1.258852972759963554e-38
3.917101490809260440e+02 1.331010925563657346e-38
4.150404757850476472e+02 1.407479232699446169e-38
4.397603609302720997e+02 1.488400400121080337e-38
4.659525668664682030e+02 1.574401733565262761e-38
4.937047852839003781e+02 1.665156512086448701e-38
5.231099308056263908e+02 1.761786760185832889e-38
5.542664520663107623e+02 1.863709284979067603e-38
5.872786613189482523e+02 1.972114702198446497e-38
6.222570836730230894e+02 2.086630242883045337e-38
6.593188271333548300e+02 2.208310444820890891e-38
6.985879746785249154e+02 2.336876135246264137e-38
7.401959996915644524e+02 2.473444381114978037e-38
7.842822061337682271e+02 2.617793200087860115e-38
8.309941949353395785e+02 2.771067623559649002e-38
8.804883581643464368e+02 2.933158974663826509e-38
9.329304026284686415e+02 3.105172302683655640e-38
9.884959046625585870e+02 3.287213638089109438e-38
1.047370897959450758e+03 3.480226558583686970e-38
1.109752496412072105e+03 3.684716974062437680e-38
1.175849554052158055e+03 3.901217354066473929e-38
1.245883364295008050e+03 4.131016203674113855e-38
1.320088400831419449e+03 4.373825962483295469e-38
1.398713102647238657e+03 4.632124177212414781e-38
1.482020705798860035e+03 4.904639764192110780e-38
1.570290124729377567e+03 5.194322748693017276e-38
1.663816886076130686e+03 5.500922917601392129e-38
1.762914118095947970e+03 5.825517471881553226e-38
1.867913599020784659e+03 6.169901675750533070e-38
1.979166867853557278e+03 6.533857636823479610e-38
2.097046401323234932e+03 6.921616440791886312e-38
2.221946860939523958e+03 7.329828161798753594e-38
2.354286414322420114e+03 7.764122461253112466e-38
2.494508135230316384e+03 8.223952234077363376e-38
2.643081486974108429e+03 8.710082162083993341e-38
2.800503894183631019e+03 9.226463231521140666e-38
2.967302408188872505e+03 9.773456729587357827e-38
3.144035471591500027e+03 1.035250075854534842e-37
3.331294787934677061e+03 1.096510510654915763e-37
3.529707302730650099e+03 1.161687580851364662e-37
3.739937302478801485e+03 1.230483167335589593e-37
3.962688638701478339e+03 1.303686142524906620e-37
4.198707084443914027e+03 1.380968417661579696e-37
4.448782831127585268e+03 1.462785640073187379e-37
4.713753134116728688e+03 1.549828095108972493e-37
4.994505115855139593e+03 1.641725011134864826e-37
5.291978735958447032e+03 1.739237189599947270e-37
5.607169938205458493e+03 1.842392520804034160e-37
5.941133984965039417e+03 1.952081042604502232e-37
6.294988990221887434e+03 2.067927400817331699e-37
6.669919663030128504e+03 2.191027641372809827e-37
7.067181273927491020e+03 2.321231700407878024e-37
7.488103857590030202e+03 2.458784705474001313e-37
7.934096665797492278e+03 2.605310653519460300e-37
8.406652885618334039e+03 2.760015724647793660e-37
8.907354638610438997e+03 2.924302686680805091e-37
9.437878277775391325e+03 3.098019737318878792e-37
1.000000000000000000e+04 3.282585894449551643e-37
