# SDn neutrino floor for Xe 
#  Column 0 = Mass [GeV] 
#  Column 1 = Cross section [cm^2]
1.000000000000000056e-01 4.638081055405622773e-40
1.059560179277615893e-01 5.113251659505668844e-40
1.122667773510813566e-01 5.664857936695257938e-40
1.189534067370319470e-01 6.309446027487054535e-40
1.260382929679727537e-01 7.054355778189711357e-40
1.335451562929898806e-01 7.914690801189372413e-40
1.414991297434576023e-01 8.923450710263602759e-40
1.499268432786045602e-01 1.010059960735358051e-39
1.588565129428052836e-01 1.150212983700298007e-39
1.683180353330956669e-01 1.319183764265511648e-39
1.783430876931909326e-01 1.523158497749459700e-39
1.889652339691209604e-01 1.771113886388289077e-39
2.002200371815584523e-01 2.061659937070802915e-39
2.121451784910629856e-01 2.392328317938478675e-39
2.247805833548725263e-01 2.751334840848080586e-39
2.381685551976158166e-01 3.124264672235698010e-39
2.523539170434765944e-01 3.505858803756530295e-39
2.673841615839946395e-01 3.885269685668946395e-39
2.833096101839324144e-01 4.266011765783913435e-39
3.001835813575589040e-01 4.648409904380851676e-39
3.180625692794120107e-01 5.033338977255498479e-39
3.370064329271929005e-01 5.430972599666046882e-39
3.570785964900463627e-01 5.834767439497630697e-39
3.783462617131930217e-01 6.245354443780703708e-39
4.008806328898465443e-01 6.651583006431011463e-39
4.247571552536899553e-01 7.028445768295485622e-39
4.500557675700498916e-01 7.349552252962070343e-39
4.768611697714470465e-01 7.558910333160605323e-39
5.052631065335680960e-01 7.609292599249479263e-39
5.353566677410726005e-01 7.449710569106170854e-39
5.672426068491979168e-01 7.066946099635680577e-39
6.010276782070382851e-01 6.484786895018163171e-39
6.368249944718588074e-01 5.756433997116883575e-39
6.747544053110694495e-01 4.943625350026568358e-39
7.149428986597579083e-01 4.101812952765203392e-39
7.575250258771913936e-01 3.282875846787638534e-39
8.026433522257175879e-01 2.528583277509735469e-39
8.504489341802679014e-01 1.872678161505977267e-39
9.011018251665020573e-01 1.345580365841684409e-39
9.547716114208059102e-01 9.612635923166101452e-40
1.011637979766207618e+00 7.011649030874372871e-40
1.071891319205128035e+00 5.272881263169512789e-40
1.135733358343105737e+00 4.077974271109253939e-40
1.203377840777589913e+00 3.234615961756639649e-40
1.275051240713013456e+00 2.629345616761786090e-40
1.350993521198027292e+00 2.191225958708620438e-40
1.431458937523479191e+00 1.875841026523242055e-40
1.516716888470923230e+00 1.651474388609246688e-40
1.607052818261639260e+00 1.495616652731116401e-40
1.702769172225900407e+00 1.391689843040456962e-40
1.804186409392072754e+00 1.325996399570204739e-40
1.911644075385702690e+00 1.289927163386283536e-40
2.025501939230667681e+00 1.275908936838961562e-40
2.146141197858404848e+00 1.278784878887626760e-40
2.273965752357928860e+00 1.295909184049651533e-40
2.409403560239525621e+00 1.323763174399171965e-40
2.552908068239517991e+00 1.360769617526332898e-40
2.704959730463135870e+00 1.405511983675741045e-40
2.866067616948251739e+00 1.455904707261217517e-40
3.036771118035459072e+00 1.512041523664712895e-40
3.217641750250737065e+00 1.571763665198560205e-40
3.409285069746812891e+00 1.634255325306653884e-40
3.612342699709432114e+00 1.698183789331385886e-40
3.827494478516312970e+00 1.761405344085720382e-40
4.055460735840830111e+00 1.822697814539332620e-40
4.297004704320841917e+00 1.879261958962466137e-40
4.552935074866949705e+00 1.929318273934371729e-40
4.824108704165371186e+00 1.968311304029368446e-40
5.111433483440167791e+00 1.991684751022093425e-40
5.415871378079473608e+00 1.992469245163914526e-40
5.738441648302395670e+00 1.959073108011905567e-40
6.080224261649424200e+00 1.871232489948583316e-40
6.442363508721373755e+00 1.685956311777230255e-40
6.826071834272389616e+00 1.371438800661029483e-40
7.232633896483537050e+00 9.560284104784309608e-41
7.663410868007458632e+00 5.142477642701891627e-41
8.119844993184013759e+00 5.928093359886239972e-42
8.603464416684504457e+00 3.316636208238083715e-42
9.115888299750823265e+00 2.053319583041320393e-42
9.658832241158703980e+00 1.336443710411963544e-42
1.023411402105453760e+01 9.060329086927087223e-43
1.084365968689610860e+01 6.361073036312614490e-43
1.148951000187309823e+01 4.625248097451550311e-43
1.217382727739662052e+01 3.481325938028350791e-43
1.289890261253309411e+01 2.708926484514594256e-43
1.366716356462007376e+01 2.181683280372776218e-43
1.448118227674534531e+01 1.817261706558935492e-43
1.534368408930013139e+01 1.562179111202305595e-43
1.625755666443794922e+01 1.384188066667958800e-43
1.722585965398787522e+01 1.259181761165371631e-43
1.825183494319044186e+01 1.171234818382187018e-43
1.933891750455232028e+01 1.110513344147541660e-43
2.049074689815848060e+01 1.069410946548242755e-43
2.171117945694505380e+01 1.042769540320490931e-43
2.300430119772919113e+01 1.027756532673117105e-43
2.437444150122221842e+01 1.021444915489744233e-43
2.582618760682677461e+01 1.022230011775940185e-43
2.736439997074672092e+01 1.029205361833039071e-43
2.899422853882878215e+01 1.040981697348366284e-43
3.072112998861759081e+01 1.057281335905138615e-43
3.255088599835060137e+01 1.077297581717649148e-43
3.448962260405759395e+01 1.100832567257165137e-43
3.654383070957258184e+01 1.126997567480480579e-43
3.872038781812557318e+01 1.156263513448605337e-43
4.102658105827194390e+01 1.187712044354445547e-43
4.347013158125026422e+01 1.221131671973907298e-43
4.605922041145108636e+01 1.256189761152338856e-43
4.880251583654433745e+01 1.292848760523182400e-43
5.170920242896760755e+01 1.330384011450220839e-43
5.478901179593945159e+01 1.368257467223943664e-43
5.805225516094901650e+01 1.406224438149626797e-43
6.150985788580504021e+01 1.445080372779003393e-43
6.517339604882427295e+01 1.483695368731505997e-43
6.905513520162330110e+01 1.521994374567631618e-43
7.316807143427199378e+01 1.560825043183694549e-43
7.752597488629464806e+01 1.600141567979772202e-43
8.214343584919430441e+01 1.639752406819438667e-43
8.703591361485165123e+01 1.680640770223678682e-43
9.221978823334330855e+01 1.722766844906049695e-43
9.771241535346501905e+01 1.766182971771686765e-43
1.035321843295662632e+02 1.811602538433954607e-43
1.096985797892384085e+02 1.859603058916407266e-43
1.162322468679852960e+02 1.909905300815068574e-43
1.231550603292826196e+02 1.962840349788904990e-43
1.304901978014403028e+02 2.019627156831159202e-43
1.382622173764656281e+02 2.079800198539106324e-43
1.464971398307286279e+02 2.143869931873935008e-43
1.552225357427047925e+02 2.212064993881129046e-43
1.644676177994664386e+02 2.284671280572897081e-43
1.742633386009650849e+02 2.362074124160759101e-43
1.846424942895544348e+02 2.445261081537853166e-43
1.956398343517064689e+02 2.533637442128742022e-43
2.072921779595371845e+02 2.628313921960756872e-43
2.196385372416546886e+02 2.728960537814414753e-43
2.327202478960409735e+02 2.836502199280941981e-43
2.465811075822603868e+02 2.951278110373403089e-43
2.612675225563328922e+02 3.073517546621658329e-43
2.768286630392066741e+02 3.203691073428353761e-43
2.933166278390045250e+02 3.342084461985695414e-43
3.107866187782013867e+02 3.489458114223928326e-43
3.292971255097151584e+02 3.645944625621762899e-43
3.489101213406773923e+02 3.811880960816539794e-43
3.696912707195028247e+02 3.989623297477839017e-43
3.917101490809260440e+02 4.178430719740768423e-43
4.150404757850476472e+02 4.378327294226002386e-43
4.397603609302720997e+02 4.589899081170599240e-43
4.659525668664682030e+02 4.816170612671277578e-43
4.937047852839003781e+02 5.055909679657688706e-43
5.231099308056263908e+02 5.308994151886231789e-43
5.542664520663107623e+02 5.579675159283752145e-43
5.872786613189482523e+02 5.866120648232273551e-43
6.222570836730230894e+02 6.169094699903864908e-43
6.593188271333548300e+02 6.492199328564425666e-43
6.985879746785249154e+02 6.833532847924558817e-43
7.401959996915644524e+02 7.196154459395664948e-43
7.842822061337682271e+02 7.580594370434295658e-43
8.309941949353395785e+02 7.987547943728855123e-43
8.804883581643464368e+02 8.420240621222024041e-43
9.329304026284686415e+02 8.878086751197009974e-43
9.884959046625585870e+02 9.363802966474907311e-43
1.047370897959450758e+03 9.878945063914539530e-43
1.109752496412072105e+03 1.042423700881844447e-42
1.175849554052158055e+03 1.100313797722346111e-42
1.245883364295008050e+03 1.161579079234142397e-42
1.320088400831419449e+03 1.226567350424410319e-42
1.398713102647238657e+03 1.295436554760936753e-42
1.482020705798860035e+03 1.368360806790392126e-42
1.570290124729377567e+03 1.445789595886148080e-42
1.663816886076130686e+03 1.527764088717136750e-42
1.762914118095947970e+03 1.614461437431770543e-42
1.867913599020784659e+03 1.706780188783418361e-42
1.979166867853557278e+03 1.804069459599077383e-42
2.097046401323234932e+03 1.907617315170511742e-42
2.221946860939523958e+03 2.017145826596107337e-42
2.354286414322420114e+03 2.133324601363644525e-42
2.494508135230316384e+03 2.256298230312647128e-42
2.643081486974108429e+03 2.386670332967953481e-42
2.800503894183631019e+03 2.524814256749855416e-42
2.967302408188872505e+03 2.671155291096612700e-42
3.144035471591500027e+03 2.826133297853602594e-42
3.331294787934677061e+03 2.990456216666311544e-42
3.529707302730650099e+03 3.164680574773728261e-42
3.739937302478801485e+03 3.348921675872129609e-42
3.962688638701478339e+03 3.544692001401633455e-42
4.198707084443914027e+03 3.751511301913155745e-42
4.448782831127585268e+03 3.971404086361240158e-42
4.713753134116728688e+03 4.203611542967686548e-42
4.994505115855139593e+03 4.450427025676613074e-42
5.291978735958447032e+03 4.711118161654525619e-42
5.607169938205458493e+03 4.988099489969436648e-42
5.941133984965039417e+03 5.281042093214333193e-42
6.294988990221887434e+03 5.591677713294558510e-42
6.669919663030128504e+03 5.920930145638842065e-42
7.067181273927491020e+03 6.269453127745767064e-42
7.488103857590030202e+03 6.639414559233183132e-42
7.934096665797492278e+03 7.030230007501551079e-42
8.406652885618334039e+03 7.445685752034228030e-42
8.907354638610438997e+03 7.884445195157989376e-42
9.437878277775391325e+03 8.350771794716339289e-42
1.000000000000000000e+04 8.843765885325643181e-42
